time (s)	magX	magY	magZ
7158.994014	-96.023376	50.528931	-2.628288
7158.997348	-97.835175	51.697838	-2.862068
7159.000700	-98.770309	51.990067	-3.388077
7159.004044	-100.523666	53.100525	-4.089420
7159.007362	-101.692581	53.451195	-4.615429
7159.010689	-102.861481	54.386326	-5.842783
7159.014021	-105.316177	55.146118	-6.427237
7159.017348	-106.601990	56.490356	-7.654589
7159.020703	-108.004669	57.367035	-8.122150
7159.024020	-109.991821	57.776154	-8.881939
7159.027346	-110.985382	58.769722	-10.109293
7159.030685	-112.914078	59.354179	-11.102863
7159.034045	-115.193451	60.523087	-11.278200
7159.037363	-116.888367	61.165985	-12.797779
7159.040267	-118.875504	62.860901	-13.849794
7159.043593	-121.096420	63.796028	-15.427820
7159.046918	-123.258911	65.081825	-16.888954
7159.050254	-125.129150	65.549385	-18.466978
7159.053591	-127.291641	67.185860	-19.285213
7159.056924	-129.570999	68.588547	-21.038574
7159.060254	-131.791931	69.114555	-22.616598
7159.063612	-134.480408	70.225014	-24.545296
7159.066924	-137.519577	71.978371	-24.954412
7159.070256	-139.682053	73.848625	-28.052017
7159.073587	-142.662766	74.549973	-29.980713
7159.076923	-145.701935	75.952660	-31.967855
7159.080251	-148.741089	77.764465	-34.130333
7159.083583	-151.546463	79.108711	-36.292812
7159.086915	-154.410278	80.219170	-38.747517
7159.090251	-156.981873	82.615425	-41.319111
7159.093581	-160.137924	84.251900	-44.124489
7159.096915	-163.878418	86.122154	-45.702515
7159.100256	-167.618927	87.875519	-48.741669
7159.103581	-170.833435	89.804207	-52.131500
7159.106949	-174.340164	91.616020	-54.819988
7159.110250	-178.080658	93.661598	-58.268265
7159.113583	-181.353607	95.648750	-61.950317
7159.116917	-185.386337	97.343658	-65.515488
7159.120268	-189.126831	99.915253	-69.372879
7159.123575	-192.750443	101.259499	-73.580948
7159.126911	-196.783173	103.305084	-77.672119
7159.130246	-201.108124	105.935127	-81.587959
7159.133576	-206.134415	108.389832	-86.731148
7159.136913	-208.939804	110.961426	-90.705437
7159.140244	-213.206299	112.831680	-96.900650
7159.143580	-217.765045	115.520164	-102.102280
7159.146911	-222.557587	117.741089	-108.005257
7159.150261	-227.583862	121.130920	-113.148453
7159.153577	-232.142609	123.527176	-120.278786
7159.156908	-237.285797	125.981888	-126.298660
7159.160278	-242.312103	128.670364	-133.896561
7159.163586	-247.221497	131.592636	-140.150208
7159.166907	-252.715363	134.339569	-148.624771
7159.170245	-257.741669	137.086502	-157.391586
7159.173577	-262.300415	139.891876	-165.632370
7159.176905	-267.151367	143.398605	-173.639389
7159.180240	-273.521912	146.379303	-183.808868
7159.183573	-278.197540	149.184677	-192.926361
7159.186911	-283.165375	152.282288	-203.388062
7159.190234	-288.951477	155.496780	-213.791336
7159.193587	-293.977783	158.945068	-224.662186
7159.196899	-299.004089	162.101105	-236.117477
7159.200240	-304.439514	164.731155	-248.858566
7159.203575	-308.647552	167.536530	-261.015198
7159.206904	-313.206299	171.393921	-273.814728
7159.210236	-318.466370	173.614838	-287.257172
7159.213566	-323.258911	176.654007	-301.926971
7159.216901	-327.583862	178.758041	-316.772064
7159.220242	-331.616608	182.089417	-331.091187
7159.223575	-335.064880	184.018112	-347.572754
7159.226907	-338.045593	186.940384	-363.879028
7159.230279	-341.552307	189.979553	-380.652832
7159.233573	-344.591461	192.083588	-398.946259
7159.236920	-347.163055	194.070709	-416.596741
7159.240235	-348.448853	195.824081	-435.708374
7159.243570	-350.552887	197.051437	-455.462860
7159.246900	-351.838684	198.980133	-474.516083
7159.250240	-351.663361	200.441254	-494.562866
7159.253565	-350.903564	201.025726	-516.421387
7159.256899	-349.851532	201.785507	-537.344788
7159.260232	-348.331970	202.019287	-559.144958
7159.263571	-346.520172	202.253067	-581.061951
7159.266901	-343.013428	201.902390	-603.212769
7159.270234	-339.331360	201.376389	-625.772644
7159.273563	-333.895966	199.623032	-648.040344
7159.276894	-328.343658	197.928116	-670.833984
7159.280242	-321.563995	195.882523	-694.504395
7159.283565	-313.206299	193.895386	-716.713623
7159.286897	-304.088837	190.797775	-739.273560
7159.290265	-293.977783	188.050842	-761.541199
7159.293563	-283.106964	183.316772	-784.101135
7159.296897	-271.242554	178.816483	-804.147888
7159.300231	-258.326141	174.666870	-826.240234
7159.303566	-243.247223	169.582123	-846.929932
7159.306899	-228.460571	162.860901	-866.742859
7159.310226	-213.264771	156.373474	-886.029785
7159.313562	-196.023376	150.236710	-904.440125
7159.316890	-178.255997	142.288147	-921.506104
7159.320227	-159.085907	134.573349	-937.987671
7159.323577	-139.506714	125.864990	-951.371765
7159.326889	-118.875504	117.741089	-965.340149
7159.330230	-98.127411	109.500298	-977.029236
7159.333556	-77.028641	100.908829	-988.133911
7159.336892	-54.644070	92.083580	-996.491516
7159.340218	-31.908825	82.089424	-1003.563416
7159.343555	-8.530682	72.796616	-1008.881958
7159.346896	14.379896	63.854469	-1012.213318
7159.350223	36.296902	54.678551	-1013.148499
7159.353555	60.025715	44.392166	-1013.148499
7159.358185	105.729980	25.105202	-1008.940430
7159.361567	127.939224	15.578609	-1003.680298
7159.364867	149.563995	6.402689	-996.549988
7159.368251	171.130341	-2.773233	-988.367615
7159.371167	191.703094	-11.364698	-977.905945
7159.374486	211.106964	-19.605494	-965.457031
7159.377842	230.160141	-27.203386	-952.599060
7159.381085	247.985977	-35.035072	-938.046143
7159.384400	265.519592	-42.165398	-921.564575
7159.387729	281.416718	-49.704849	-903.914062
7159.391097	295.911163	-56.250725	-886.672668
7159.394426	310.230286	-62.621269	-867.327271
7159.397834	322.737579	-67.413788	-847.222107
7159.401173	334.601990	-72.615425	-827.350708
7159.404439	345.589722	-77.758614	-806.953247
7159.407728	355.466980	-82.901802	-784.860962
7159.411085	364.526001	-86.759201	-762.593201
7159.414427	371.597900	-90.675034	-740.208679
7159.417754	377.793121	-93.714195	-717.356506
7159.421144	384.514313	-97.513145	-696.023987
7159.424488	388.663940	-99.792519	-672.879578
7159.427792	392.346008	-102.481003	-650.553528
7159.431063	395.618927	-104.760368	-627.701355
7159.434406	398.365875	-106.805969	-605.083008
7159.437303	399.008759	-108.383987	-583.458252
7159.440634	399.242554	-109.436005	-561.716553
7159.443971	399.184113	-110.663345	-540.325500
7159.447374	398.365875	-111.306259	-519.518982
7159.450661	396.554047	-111.715363	-498.770905
7159.454000	394.508484	-111.773819	-479.074799
7159.457359	392.872009	-111.306259	-459.554077
7159.460636	389.599091	-111.247803	-440.384003
7159.463975	386.384583	-111.072479	-422.675049
7159.467303	382.994751	-110.663345	-404.498535
7159.470667	378.786682	-110.137344	-387.666290
7159.473972	374.403290	-109.085327	-371.710693
7159.477304	369.669189	-107.916412	-355.579803
7159.480628	364.993561	-107.565750	-340.325562
7159.483989	360.201080	-106.338394	-325.889557
7159.487328	354.824097	-105.344826	-310.810638
7159.490249	349.856232	-104.468147	-297.134430
7159.493556	344.070129	-102.890114	-284.159546
7159.496877	338.693146	-100.786087	-271.243134
7159.500206	332.322601	-100.376968	-259.144958
7159.503537	327.471649	-98.156052	-247.514313
7159.506878	321.977814	-96.753365	-236.877243
7159.510207	316.074829	-95.876678	-225.538864
7159.513540	310.464081	-93.421974	-215.135590
7159.516872	304.035065	-91.551727	-205.784332
7159.520209	298.891876	-90.675034	-196.842194
7159.523534	293.865570	-89.038567	-187.023376
7159.526871	287.670349	-87.285217	-179.250137
7159.530208	282.351837	-85.940964	-170.249557
7159.533574	277.500885	-84.888954	-162.300995
7159.536866	272.182343	-82.434242	-155.345993
7159.540207	267.039154	-81.616013	-147.163635
7159.543533	261.895966	-80.096428	-141.436005
7159.546870	256.986542	-78.401520	-134.364120
7159.550201	251.492706	-76.472816	-128.461136
7159.553538	247.050858	-75.011688	-122.908829
7159.556932	241.966110	-74.193451	-116.713615
7159.560206	237.232040	-72.673874	-112.213333
7159.563539	232.381058	-71.212738	-107.070137
7159.566869	227.997665	-69.576271	-102.219170
7159.570202	223.380493	-68.115135	-97.251320
7159.573532	219.172424	-67.413788	-93.218582
7159.576889	215.081238	-66.303329	-89.361191
7159.580199	210.756287	-64.082405	-84.977791
7159.583532	206.139099	-63.614845	-81.938637
7159.586871	202.866165	-62.212158	-77.964348
7159.590201	199.417877	-61.277031	-74.574516
7159.593530	195.209824	-60.108124	-72.061371
7159.596861	191.761551	-59.114548	-69.080650
7159.600197	188.021042	-58.004089	-65.398598
7159.603530	184.748108	-56.367615	-61.950317
7159.606868	181.650497	-55.607834	-59.787842
7159.610200	178.260666	-54.380478	-56.631794
7159.613525	174.929291	-53.562241	-54.586205
7159.616859	171.948563	-52.451782	-52.715958
7159.620215	168.792526	-52.334892	-50.904152
7159.623526	166.396255	-50.990646	-47.748100
7159.626866	162.538864	-50.230850	-45.351841
7159.630197	159.382828	-49.354179	-43.481590
7159.633529	157.103439	-49.061951	-41.026886
7159.636858	154.064285	-48.009933	-39.741089
7159.640195	152.252487	-46.373459	-38.221508
7159.643529	149.973114	-46.665695	-36.468147
7159.646862	147.752197	-45.146111	-34.773232
7159.650193	144.713028	-44.444771	-33.136761
7159.653529	142.667450	-43.509644	-31.208065
7159.656860	140.563416	-43.217415	-29.396259
7159.660196	137.816483	-42.866745	-28.227352
7159.663528	136.296906	-42.399178	-26.883110
7159.666854	134.368210	-41.230278	-25.246639
7159.670189	132.147278	-40.645821	-23.843950
7159.673522	130.277039	-40.704262	-23.668615
7159.676857	128.465225	-39.710693	-21.973700
7159.680239	126.770309	-38.541786	-21.564583
7159.683520	125.484512	-37.840446	-21.213909
7159.686858	123.789597	-38.015778	-19.986557
7159.690191	122.270020	-36.671539	-18.759205
7159.693522	120.808884	-36.846870	-18.057861
7159.696857	119.698425	-36.262421	-17.940971
7159.700190	117.769730	-35.677963	-16.830509
7159.703522	115.841034	-35.561073	-16.538280
7159.706865	114.789017	-34.509056	-15.077148
7159.710184	112.977203	-34.275276	-15.310929
7159.713525	111.808304	-33.807716	-14.434250
7159.716855	110.931625	-33.573929	-13.323786
7159.720187	109.996490	-32.931038	-13.440678
7159.723516	109.002914	-32.814148	-12.447107
7159.726853	108.067795	-32.872589	-12.388662
7159.730186	107.191116	-32.171242	-10.869083
7159.733517	105.963760	-31.937464	-11.161310
7159.736866	105.028641	-31.762125	-11.044418
7159.740192	103.684402	-31.645235	-10.810637
7159.743517	102.573929	-31.353010	-9.875511
7159.746852	101.814148	-30.417883	-9.349503
7159.750199	100.995911	-30.125654	-8.881939
7159.753514	99.943893	-30.300993	-8.823494
7159.756856	98.833435	-29.833429	-8.355932
7159.760183	99.125656	-30.184103	-8.765049
7159.763518	97.839859	-29.950323	-8.063705
7159.766845	97.138519	-29.482759	-7.713034
7159.770182	95.911163	-29.365870	-7.187025
7159.773518	95.911163	-28.898306	-6.836353
7159.776849	95.443604	-28.606077	-7.128580
7159.780198	94.450027	-28.664526	-7.128580
7159.783517	94.450027	-28.080072	-6.076563
7159.786844	93.748688	-28.196962	-5.901228
7159.790183	93.164230	-28.430742	-6.485682
7159.793517	93.222672	-27.729399	-6.602571
7159.796889	92.696671	-27.787840	-5.959673
7159.800181	91.936874	-27.261835	-6.251900
7159.803506	91.819992	-27.320280	-5.901228
7159.806844	91.352425	-27.086496	-5.375219
7159.810175	90.826416	-27.086496	-5.725891
7159.813512	90.417297	-26.735826	-5.024546
7159.816841	90.592636	-26.911161	-5.433664
7159.820178	90.300415	-27.086496	-4.790766
7159.824885	89.832848	-27.203386	-5.141438
7159.828186	89.657516	-27.028051	-5.024546
7159.831512	89.482178	-26.326708	-4.907656
7159.834438	89.248398	-26.385153	-4.323202
7159.838119	89.599060	-26.794271	-3.680304
7159.841028	89.365280	-26.560488	-3.972530
7159.844356	89.131500	-27.028051	-4.206312
7159.847712	89.189949	-26.326708	-3.797194
7159.851039	88.605499	-26.385153	-4.323202
7159.854469	88.956161	-26.677382	-3.563414
7159.857766	88.839279	-26.794271	-4.206312
7159.861045	88.722382	-26.268263	-4.147867
7159.864356	89.189949	-26.385153	-3.855640
7159.867724	89.131500	-26.151373	-3.738749
7159.871032	89.599060	-26.502043	-4.147867
7159.874368	89.540619	-26.618937	-4.264757
7159.877766	90.183517	-26.502043	-4.966101
7159.881102	90.125076	-26.618937	-4.556984
7159.884360	89.891296	-26.385153	-4.556984
7159.887693	90.125076	-26.911161	-4.381647
7159.891029	90.767975	-27.144941	-4.030975
7159.894372	90.826416	-26.969606	-4.381647
7159.897303	91.001755	-27.320280	-3.738749
7159.900610	91.819992	-26.618937	-5.316774
7159.903941	91.995323	-27.261835	-5.141438
7159.907281	91.995323	-27.086496	-5.667446
7159.910621	92.755112	-27.495615	-5.901228
7159.913921	93.456459	-27.612509	-5.433664
7159.917255	93.514908	-27.729399	-5.433664
7159.920591	94.391586	-28.021624	-6.427237
7159.923930	94.333138	-28.372293	-6.485682
7159.927254	94.800705	-27.963182	-6.719463
7159.930594	96.028061	-28.021624	-7.362362
7159.933942	96.787842	-28.255404	-7.128580
7159.937270	97.255402	-28.430742	-7.303915
7159.940634	97.839859	-28.664526	-7.771479
7159.943931	97.956749	-29.015196	-7.888369
7159.947254	99.184105	-29.015196	-8.472822
7159.950584	99.417885	-29.658091	-8.589714
7159.953503	100.937462	-29.599649	-8.823494
7159.956834	102.223259	-30.067213	-9.057276
7159.960163	102.340149	-30.300993	-9.641729
7159.963493	103.450615	-30.417883	-9.466393
7159.966836	104.327293	-30.300993	-10.459965
7159.970164	106.022209	-30.710108	-10.927528
7159.973496	107.074226	-31.411451	-11.687317
7159.976831	108.067795	-31.937464	-12.271770
7159.980162	109.119812	-32.112793	-12.680887
7159.983516	110.230270	-32.405029	-13.148451
7159.986823	111.282288	-32.755699	-13.849794
7159.990175	112.743423	-33.106369	-15.018703
7159.993493	114.379898	-33.340149	-15.603156
7159.996837	115.022797	-33.340149	-16.129166
7160.000155	116.776154	-33.807716	-17.181179
7160.003492	118.178833	-34.625946	-17.473408
7160.006825	119.581528	-34.742836	-18.350088
7160.010164	121.276443	-35.035072	-18.233196
7160.013490	123.029800	-34.918175	-19.226768
7160.016824	124.315598	-35.561073	-20.278786
7160.020155	125.718292	-36.379311	-22.032145
7160.023489	127.354767	-36.671539	-22.675045
7160.026843	129.400345	-37.489777	-23.259497
7160.030160	130.978378	-38.191116	-24.545296
7160.033486	132.907074	-38.366447	-25.480421
7160.036824	135.011108	-38.775574	-27.175337
7160.040162	136.647583	-40.002922	-27.759789
7160.043485	139.102280	-40.236702	-28.870251
7160.046816	141.089417	-40.938042	-30.798948
7160.050164	143.251892	-41.464058	-32.493862
7160.053489	145.881943	-41.522507	-33.779659
7160.056821	147.810638	-42.632957	-35.474575
7160.060155	150.616013	-43.509644	-37.286381
7160.063491	152.661606	-44.210991	-38.922852
7160.066822	154.940979	-44.620102	-40.442429
7160.070169	157.863235	-45.847458	-42.078903
7160.073490	160.259506	-45.789009	-43.540035
7160.076816	163.473984	-46.957916	-45.644066
7160.080149	166.571594	-47.834595	-48.040329
7160.083492	169.260086	-48.185272	-50.144360
7160.086815	172.591461	-48.594383	-52.949738
7160.090147	175.747513	-49.997070	-54.936878
7160.093480	179.429565	-50.523087	-58.209816
7160.096815	181.650497	-51.750443	-60.606079
7160.100144	185.215668	-52.159554	-62.885445
7160.103480	188.780838	-53.270020	-65.924606
7160.106820	192.404449	-54.205139	-69.372879
7160.110152	196.495621	-55.315598	-72.178261
7160.113514	199.651657	-55.900055	-75.743423
7160.116817	203.625961	-56.718292	-79.425484
7160.120147	207.717133	-58.120979	-83.341324
7160.123477	212.275864	-59.056099	-87.549385
7160.126833	216.133255	-59.991234	-91.465225
7160.130148	220.575104	-61.335472	-95.965523
7160.133475	224.490952	-62.095268	-100.699593
7160.136812	229.283463	-62.796608	-105.258331
7160.140149	233.959091	-64.082405	-111.453537
7160.143479	238.050262	-65.368202	-116.187614
7160.146812	243.368805	-66.069550	-121.155464
7160.150145	248.745773	-67.472237	-126.473991
7160.153476	253.129166	-68.582703	-132.727646
7160.156839	258.564575	-69.985390	-139.039749
7160.160144	263.473999	-70.978958	-145.410294
7160.163479	268.967865	-71.797188	-153.358856
7160.166820	274.052612	-73.141434	-159.670944
7160.170161	279.429565	-74.018112	-168.671539
7160.173475	284.397430	-75.303909	-175.918762
7160.176808	290.358826	-75.888367	-184.451782
7160.180144	296.028046	-77.115723	-192.926361
7160.183476	301.580353	-78.518410	-202.219162
7160.186804	306.957336	-79.453537	-212.271774
7160.190137	313.152557	-80.096428	-222.090591
7160.193470	319.230865	-80.739334	-232.902969
7160.196803	324.783173	-81.966682	-243.949142
7160.200167	331.095245	-82.492691	-254.352417
7160.203472	336.180023	-83.194031	-265.690826
7160.206801	342.258331	-84.187607	-278.198120
7160.210143	348.219757	-85.064285	-291.056122
7160.213487	354.122742	-85.473396	-304.732330
7160.216800	359.441284	-85.999413	-318.525421
7160.220137	365.168915	-85.999413	-332.786102
7160.223470	371.071869	-86.583870	-348.507904
7160.226800	376.156647	-87.285217	-364.112823
7160.230190	380.890717	-86.876099	-379.542389
7160.233469	384.864990	-86.759201	-396.783783
7160.236799	389.423737	-86.116310	-413.908264
7160.240130	393.865570	-85.940964	-431.850983
7160.243469	397.196960	-85.239616	-449.910583
7160.246799	400.528351	-84.713623	-468.963745
7160.250135	403.801300	-83.544716	-487.841644
7160.253464	406.314423	-82.200462	-507.888397
7160.256827	408.009369	-80.271774	-528.811829
7160.261492	410.171844	-76.648155	-569.840454
7160.264820	410.756287	-74.310341	-590.939209
7160.268163	410.054932	-71.621857	-612.388672
7160.271079	409.002930	-68.173584	-635.474548
7160.274751	407.658691	-65.601990	-657.566895
7160.278091	403.450623	-61.744591	-679.191711
7160.281013	400.294556	-58.179428	-701.400940
7160.284341	395.794281	-53.620689	-721.915283
7160.287757	390.241974	-48.828163	-743.656982
7160.291056	383.170074	-44.094093	-765.164856
7160.294383	375.630646	-38.483337	-786.029785
7160.297650	366.045593	-31.820574	-806.777893
7160.300984	356.752777	-26.151373	-826.824646
7160.304301	345.998840	-19.313269	-846.345398
7160.307659	333.491547	-12.884279	-864.697266
7160.311025	320.049103	-5.169491	-882.114014
7160.314474	306.431335	2.720633	-898.770874
7160.317715	291.293976	10.201637	-914.375793
7160.320973	276.448853	18.383986	-928.519592
7160.324311	258.447693	28.202805	-942.487976
7160.327629	240.680313	36.502045	-952.657471
7160.331003	221.685577	45.853302	-962.943909
7160.334347	202.106369	55.146118	-971.652283
7160.337241	181.884277	64.555817	-978.665710
7160.340576	160.259506	73.439507	-983.049072
7160.343905	139.102280	83.492111	-987.198730
7160.347221	117.126831	93.310928	-989.302734
7160.350554	94.099358	103.129753	-989.478088
7160.353882	71.656342	112.831680	-988.542908
7160.357243	49.096436	122.124489	-984.101074
7160.360549	25.718294	131.534180	-979.133301
7160.363881	3.216831	140.768555	-973.230225
7160.367213	-19.576855	150.645828	-965.340149
7160.370548	-40.967854	158.477509	-955.229065
7160.373922	-62.826420	166.776733	-944.007568
7160.377238	-84.451187	175.192871	-931.208130
7160.380566	-105.199295	182.556976	-917.648804
7160.383880	-125.012268	190.388657	-901.167175
7160.387213	-144.299240	196.525421	-885.036255
7160.390539	-162.943298	202.486862	-868.788452
7160.393456	-180.009354	208.974289	-849.267639
7160.396792	-196.549377	214.175919	-829.980713
7160.400148	-212.388062	218.617767	-810.927551
7160.403456	-227.057831	222.767380	-790.705444
7160.406788	-240.383392	226.683212	-769.723572
7160.410117	-253.358276	230.540619	-748.040344
7160.413447	-265.748688	232.410873	-726.473999
7160.416780	-276.327271	235.040909	-704.966125
7160.420121	-286.321442	236.326706	-683.282898
7160.423445	-294.679138	237.612518	-660.372314
7160.426784	-303.212158	237.904739	-638.981262
7160.430133	-309.056702	238.839874	-616.655212
7160.433443	-315.135010	238.898315	-593.335449
7160.436814	-320.453522	238.138519	-572.587402
7160.440117	-324.661591	237.203384	-551.547058
7160.443451	-327.642303	235.742264	-530.448242
7160.446785	-330.915253	234.456451	-509.232605
7160.450117	-332.785492	232.469330	-489.478088
7160.453447	-333.837524	230.189957	-469.139099
7160.456775	-334.480408	228.027466	-450.261261
